24 1001
Beverley Allan and Hugh Coe
 University of East Anglia, Norwich, UK 
 Differential Optical Absorption Spectrometer, Mace Head, Eire 
ACSOE OXICOA EASE'96
1 1
1996 08 02  1997 01 29
0
Time in fractional Julian Day
3
1.0 1.0 1
999 999 999
NITROGEN DIOXIDE (pptv)
ERROR FROM ANALYSIS (pptv)
ERROR FLAG
2
Missing data markers represent poor raw data / hardware problems.   
Detection limit for NO2 is 140 ppt determined from the analysis.   
5   
THIS-FILE-NAME=mh960802.nx4   
THIS-FILE-VERSION=1   
THIS-FILE-ENDS=1996 08 02   
E-MAIL-CONTACT=b.allan@uea.ac.uk   
Jday NO2 Analysis Error Error Flag
215.0035 394.82 121.02 1
215.0104 358.15 121.11 1
215.0174	308.15	121.1	1
215.0243	322.12	122.45	1
215.0313	396.92	124.89	1
215.0382	286.53	121.31	1
215.0452	434.96	123.04	1
215.0521	327.43	121.98	1
215.0591	357.03	122.61	1
215.066	999	999	3
215.0729	446	126.38	1
215.0799	423.46	125.96	1
215.0868	474.04	125.09	1
215.0938	436.09	125.94	1
215.1007	421.78	129.63	1
215.1077	478.69	126.37	1
215.1146	503.69	125.08	1
215.1216	460.1	126.3	1
215.1285	428.24	126	1
215.1354	418.65	126.36	1
215.1424	427.46	128.32	1
215.1493	999	999	3
215.1563	567.18	125.94	1
215.1632	570.7	125.79	1
215.1702	507.07	124.74	1
215.1771	460.36	125.33	1
215.1841	497.13	125.82	1
215.191	589.81	126.02	1
215.1979	541.5	127.07	1
215.2049	545.61	127.08	1
215.2118	539.22	128.69	1
215.2188	493.89	129.09	1
215.2257	512.32	127.86	1
215.2327	501.21	128.69	1
215.2396	515.46	131.29	1
215.2466	585.7	132.11	1
215.2535	549.79	132	1
215.2604	449.03	131.99	1
215.2674	431.04	129.09	1
215.2743	411.4	129.62	1
215.2813	354.53	130	1
215.2882	378.03	132.21	1
215.2952	397.96	133.65	1
215.3021	383.36	133.92	1
215.3091	379.54	136.76	1
215.316	398.75	139.51	1
215.3229	447.15	139.68	1
215.3299	402.49	140.74	1
215.3368	417.79	140.82	1
215.3438	408.55	142.87	1
215.3507	439.78	144.61	1
215.3577	445.59	144.41	1
215.3646	456.77	144.45	1
215.4077	318.81	117.16	1
215.4146	456.03	117.79	1
215.4216	401.36	119.91	1
215.4285	308.49	118.18	1
215.4354	329.46	120.91	1
215.4424	294.57	120.76	1
215.4493	297.48	107.96	1
215.4563	317.68	116.15	1
215.4632	302	115.57	1
215.4702	347.03	117.61	1
215.4771	313.53	114.63	1
215.4841	302.83	111.82	1
215.491	290	109.63	1
215.4979	268.79	108.11	1
215.5049	279.87	106.1	1
215.5118	277.7	104.29	1
215.5188	282.54	103.69	1
215.5257	348.09	104.75	1
215.5327	297.48	107.96	1
215.5396	293.86	106.47	1
215.5466	248.53	105.77	1
215.5535	222.44	106.39	1
215.5604	259.22	106	1
215.5674	268.98	106.28	1
215.5743	279.11	106.68	1
215.5813	210.94	103.03	1
215.5882	269.02	104.3	1
215.5952	219.5	104.21	1
215.6021	189.59	103.36	1
215.6091	281.87	103.52	1
215.616	307.59	105.7	1
215.6229	235.06	104.79	1
215.6299	206.75	102.11	1
215.6368	240.93	102.05	1
215.6438	305.88	102.8	1
215.6507	244.58	103.53	1
215.6577	281.05	104.32	1
215.6646	211.35	102.66	1
215.6716	198.77	104.98	1
215.6785	201.52	103.48	1
215.6854	242.95	106.27	1
215.6924	246.4	107.64	1
215.6993	179.09	109.17	1
215.7063	235.56	109.04	1
215.7132	255.61	106.17	1
215.7202	284.16	108.06	1
215.7271	262.09	108.28	1
215.7341	294.51	111.06	1
215.741	264.86	111.38	1
215.7479	299.56	113.4	1
215.7549	252.71	109.5	1
215.7618	263.5	108.16	1
215.7688	281.16	103.44	1
215.7757	298.56	103.7	1
215.7827	284.34	102.32	1
