25 1001
Beverley Allan and Hugh Coe
 University of East Anglia, Norwich, UK 
 Differential Optical Absorption Spectrometer, Mace Head, Eire 
ACSOE OXICOA EASE'96
1 1
1996 08 01  1997 01 29
0
Time in fractional Julian Day
3
1.0 1.0 1
999 999 999
OZONE (ppbv)
ERROR FROM ANALYSIS (ppbv)
ERROR FLAG
3
Missing data markers represent poor raw data / hardware problems.   
Detection limit for O3 is 2 ppb determined from the analysis.   
Ability to retrieve O3 was reduced during this campaign due to a particular problem in the O3 wavelength region.   
5   
THIS-FILE-NAME=mh960801.o33   
THIS-FILE-VERSION=1   
THIS-FILE-ENDS=1996 08 01   
E-MAIL-CONTACT=b.allan@uea.ac.uk   
Jday O3 Analysis Error Error Flag
214.0028	31.88	2.6	1
214.0098	32.41	1.85	1
214.0167	32.95	1.82	1
214.0236	33.29	1.87	1
214.0306	33.63	1.9	1
214.0375	32.86	1.87	1
214.0445	34.85	1.89	1
214.0514	34.96	1.88	1
214.0584	36.23	1.86	1
214.0653	35.48	1.9	1
214.0723	35.65	1.89	1
214.0792	36.32	1.89	1
214.0861	38.59	1.91	1
214.0931	38.3	1.94	1
214.1	37.29	1.97	1
214.107	38.08	1.97	1
214.1139	38.73	1.97	1
214.1209	39.02	2	1
214.1278	41.05	2	1
214.1348	40.77	2	1
214.1417	41.43	2.01	1
214.1486	43.54	2.03	1
214.1556	44.26	2	1
214.1625	44.51	2	1
214.1695	42.27	2	1
214.1764	42.14	1.99	1
214.1834	41.41	1.99	1
214.1903	41.88	2	1
214.1973	42.44	2	1
214.2042	43.2	2.01	1
214.2111	42.44	2	1
214.2181	42.33	1.98	1
214.225	42.7	2.01	1
214.232	43.2	1.99	1
214.2389	44.18	2.01	1
214.2459	46.11	2.05	1
214.2528	46.67	2.05	1
214.2604	48.12	2.04	1
214.2674	45.88	2.1	1
214.2743	46.88	2.12	1
214.2813	47.27	2.13	1
214.2882	45.96	2.11	1
214.2952	46.4	2.15	1
214.3021	46.56	2.17	1
214.3091	48.16	2.14	1
214.316	46.62	2.12	1
214.3229	45.8	2.13	1
214.3299	45.7	2.18	1
214.3368	999	999	3
214.3438	44.68	2.17	1
214.3507	45.84	2.17	1
214.3577	45.33	2.22	1
214.3646	45.41	2.25	1
214.3716	44.8	2.22	1
214.3966	44.02	2.49	1
214.4035	44.21	2.41	1
214.4104	46.17	2.19	1
214.4174	47.26	2.24	1
214.4243	44.97	2.39	1
214.4313	44.05	2.46	1
214.4382	42.75	2.38	1
214.4452	43.5	2.49	1
214.4521	44.43	2.47	1
214.4591	45.12	2.51	1
214.466	45.2	2.51	1
214.4729	44.3	2.41	1
214.4799	44.69	2.4	1
214.4868	43.34	2.4	1
214.4938	44.07	2.44	1
214.5007	43.08	2.35	1
214.5077	42.99	2.27	1
214.5146	41.56	2.21	1
214.5216	42.54	2.16	1
214.5285	42.02	2.18	1
214.5354	41.65	2.22	1
214.5424	41.5	2.22	1
214.5493	42.73	2.21	1
214.5563	41.62	2.23	1
214.5632	41.76	2.27	1
214.5702	40.52	2.27	1
214.5771	41.22	2.33	1
214.5841	40.6	2.63	1
214.591	42.62	2.3	1
214.5979	41.49	2.32	1
214.6049	39.36	2.2	1
214.6118	38.6	2.15	1
214.6188	38.81	2.18	1
214.6257	40.05	2.16	1
214.6327	40.12	2.13	1
214.6396	40.21	2.05	1
214.6466	39.62	2	1
214.6535	999	999	3
214.6604	39.43	1.94	1
214.6674	39.31	1.99	1
214.6743	41.2	2.06	1
214.6813	39.33	2.04	1
214.6882	39.82	2.05	1
214.6952	38.24	2.02	1
214.7021	37.85	1.93	1
214.7091	37.85	1.88	1
214.716	37.8	1.88	1
214.7229	36.89	1.97	1
214.7299	37.94	1.96	1
214.7368	40.54	2.08	1
214.7438	41.52	2.04	1
214.7507	41.76	2.01	1
214.7813	41.71	2	1
214.7882	39.11	1.96	1
214.7952	41.44	1.97	1
214.8021	40.3	1.97	1
214.8091	39.77	1.95	1
214.816	40.46	1.94	1
214.8229	39.5	1.91	1
214.8299	39.98	1.93	1
214.8368	39.06	1.96	1
214.8438	38.86	1.94	1
214.8507	39.42	1.99	1
214.8577	38.56	1.97	1
214.8646	40.01	1.95	1
214.8716	39.15	1.99	1
214.8785	39.12	2.02	1
214.8854	38.5	2.04	1
214.8924	38.95	2.03	1
214.8993	38.67	2.01	1
214.9063	39.55	2.05	1
214.9132	38.51	2.08	1
214.9202	38.12	2.1	1
214.9271	38.56	2.12	1
214.9341	38.01	2.12	1
214.941	38.56	2.12	1
214.9479	38.62	2.12	1
214.9549	37.83	2.12	1
214.9618	36.57	2.17	1
214.9688	36.16	2.13	1
214.9757	35.68	2.14	1
214.9827	35.64	2.16	1
214.9896	36.48	2.15	1
214.9966	36	2.16	1
