24 1001
Beverley Allan and Hugh Coe
 University of East Anglia, Norwich, UK 
 Differential Optical Absorption Spectrometer, Mace Head, Eire 
ACSOE OXICOA EASE'96
1 1
1996 08 02  1997 01 29
0
Time in fractional Julian Day
3
1.0 1.0 1
999 999 999
FORMALDEHYDE (pptv)
ERROR FROM ANALYSIS (pptv)
ERROR FLAG
2
Missing data markers represent poor raw data / hardware problems.   
Detection limit for HCHO is 130 ppt determined from the analysis.   
5   
THIS-FILE-NAME=mh960802.fm2   
THIS-FILE-VERSION=1   
THIS-FILE-ENDS=1996 08 02   
E-MAIL-CONTACT=b.allan@uea.ac.uk   
Jday HCHO Analysis Error Error Flag
215.0035	364.12	127.7	1
215.0104	330.02	127.79	1
215.0174	289.67	127.79	1
215.0243	363.02	129.21	1
215.0313	373.81	131.79	1
215.0382	369.19	128	1
215.0452	371.48	129.84	1
215.0521	306.54	128.72	1
215.0591	340.62	129.38	1
215.066	999	999	3
215.0729	344.22	133.36	1
215.0799	337.32	132.91	1
215.0868	310.84	132	1
215.0938	263.73	132.89	1
215.1007	71.68	136.79	1
215.1077	394.41	133.35	1
215.1146	357.08	131.99	1
215.1216	304.25	133.28	1
215.1285	267.07	132.96	1
215.1354	239.05	133.34	1
215.1424	111.7	135.4	1
215.1493	999	999	3
215.1563	362.23	132.89	1
215.1632	273.57	132.74	1
215.1702	312.05	131.63	1
215.1771	336.76	132.25	1
215.1841	368.87	132.77	1
215.191	298.74	132.98	1
215.1979	289.02	134.09	1
215.2049	272.33	134.1	1
215.2118	291.61	135.8	1
215.2188	307.87	136.22	1
215.2257	252.92	134.92	1
215.2327	250.36	135.79	1
215.2396	186.29	138.54	1
215.2466	235.14	139.4	1
215.2535	249.41	139.29	1
215.2604	251.72	139.28	1
215.2674	283.77	136.21	1
215.2743	258.05	136.77	1
215.2813	283.56	137.18	1
215.2882	321.23	139.51	1
215.2952	289.46	141.03	1
215.3021	326.77	141.31	1
215.3091	330.28	144.32	1
215.316	371.62	147.21	1
215.3229	278.49	147.4	1
215.3299	273.65	148.51	1
215.3368	225.62	148.6	1
215.3438	270.25	150.76	1
215.3507	289.33	152.59	1
215.3577	245.12	152.38	1
215.3646	254.85	152.43	1
215.4077	390.96	123.63	1
215.4146	259.93	124.3	1
215.4216	295.65	126.53	1
215.4285	245.02	124.71	1
215.4354	256.78	127.59	1
215.4424	211.48	127.43	1
215.4493	442.3	113.92	1
215.4563	404.16	122.56	1
215.4632	429.74	121.95	1
215.4702	475.73	124.11	1
215.4771	425.72	120.96	1
215.4841	451.95	118	1
215.491	480.66	115.69	1
215.4979	502.66	114.08	1
215.5049	550.65	111.96	1
215.5118	471.99	110.05	1
215.5188	459.62	109.42	1
215.5257	440.73	110.54	1
215.5327	442.3	113.92	1
215.5396	453.83	112.35	1
215.5466	509.64	111.61	1
215.5535	531.61	112.26	1
215.5604	523.22	111.85	1
215.5674	496.76	112.15	1
215.5743	554.74	112.57	1
215.5813	581.16	108.72	1
215.5882	476.42	110.06	1
215.5952	420.93	109.96	1
215.6021	403.11	109.07	1
215.6091	361.72	109.24	1
215.616	531.49	111.54	1
215.6229	517.99	110.58	1
215.6299	591.91	107.75	1
215.6368	547.39	107.69	1
215.6438	509.09	108.48	1
215.6507	515.42	109.25	1
215.6577	510.51	110.09	1
215.6646	487.42	108.33	1
215.6716	450.49	110.78	1
215.6785	502.92	109.2	1
215.6854	459.91	112.14	1
215.6924	393.73	113.58	1
215.6993	270.4	115.2	1
215.7063	249.61	115.07	1
215.7132	285.05	112.04	1
215.7202	314.36	114.03	1
215.7271	251.12	114.26	1
215.7341	304.52	117.2	1
215.741	221.76	117.53	1
215.7479	218.7	119.66	1
215.7549	220.79	115.55	1
215.7618	329.71	114.13	1
215.7688	425.61	109.15	1
215.7757	426.54	109.43	1
215.7827	419.11	107.97	1
