25 1001
Beverley Allan and Hugh Coe
 University of East Anglia, Norwich, UK 
 Differential Optical Absorption Spectrometer, Mace Head, Eire 
ACSOE OXICOA EASE'96
1 1
1996 08 02  1997 01 29
0
Time in fractional Julian Day
3
1.0 1.0 1
999 999 999
OZONE (ppbv)
ERROR FROM ANALYSIS (ppbv)
ERROR FLAG
3
Missing data markers represent poor raw data / hardware problems.   
Detection limit for O3 is 2 ppb determined from the analysis.   
Ability to retrieve O3 was reduced during this campaign due to a particular problem in the O3 wavelength region.   
5   
THIS-FILE-NAME=mh960802.o33   
THIS-FILE-VERSION=1   
THIS-FILE-ENDS=1996 08 02   
E-MAIL-CONTACT=b.allan@uea.ac.uk   
Jday O3 Analysis Error Error Flag
215.0035	34.25	1.56	1
215.0104	33	1.56	1
215.0174	32.13	1.56	1
215.0243	32.93	1.58	1
215.0313	33.42	1.61	1
215.0382	32.53	1.56	1
215.0452	32.72	1.58	1
215.0521	31.73	1.57	1
215.0591	32.88	1.58	1
215.066	999	999	3
215.0729	33.87	1.63	1
215.0799	33.34	1.62	1
215.0868	32.82	1.61	1
215.0938	32.19	1.62	1
215.1007	29.73	1.67	1
215.1077	36.87	1.63	1
215.1146	36.95	1.61	1
215.1216	36.52	1.63	1
215.1285	35.29	1.62	1
215.1354	34.93	1.63	1
215.1424	34.58	1.65	1
215.1493	999	999	3
215.1563	35.8	1.62	1
215.1632	35.7	1.62	1
215.1702	34.46	1.61	1
215.1771	35.11	1.61	1
215.1841	36.05	1.62	1
215.191	36.84	1.62	1
215.1979	38.76	1.64	1
215.2049	39.19	1.64	1
215.2118	38.36	1.66	1
215.2188	38.19	1.66	1
215.2257	39.51	1.65	1
215.2327	40.12	1.66	1
215.2396	39.49	1.69	1
215.2466	39.16	1.7	1
215.2535	39.69	1.7	1
215.2604	40.48	1.7	1
215.2674	41.68	1.66	1
215.2743	40.58	1.67	1
215.2813	40.55	1.67	1
215.2882	39.9	1.7	1
215.2952	40.22	1.72	1
215.3021	40.67	1.72	1
215.3091	40.33	1.76	1
215.316	41.03	1.8	1
215.3229	40.56	1.8	1
215.3299	40.61	1.81	1
215.3368	40.35	1.81	1
215.3438	41.08	1.84	1
215.3507	41.23	1.86	1
215.3577	40.91	1.86	1
215.3646	40.33	1.86	1
215.4077	40.94	1.51	1
215.4146	40.63	1.52	1
215.4216	40.49	1.54	1
215.4285	40	1.52	1
215.4354	38.53	1.56	1
215.4424	38.76	1.55	1
215.4493	36.88	1.39	1
215.4563	40.2	1.5	1
215.4632	40.46	1.49	1
215.4702	40.48	1.51	1
215.4771	39.9	1.48	1
215.4841	39.3	1.44	1
215.491	39.09	1.41	1
215.4979	39.58	1.39	1
215.5049	38.71	1.37	1
215.5118	37.02	1.34	1
215.5188	36.82	1.33	1
215.5257	36.42	1.35	1
215.5327	36.88	1.39	1
215.5396	36.64	1.37	1
215.5466	36.81	1.36	1
215.5535	36.93	1.37	1
215.5604	36.63	1.36	1
215.5674	35.92	1.37	1
215.5743	36.1	1.37	1
215.5813	36.18	1.33	1
215.5882	36.04	1.34	1
215.5952	34.75	1.34	1
215.6021	34.74	1.33	1
215.6091	35.51	1.33	1
215.616	36.66	1.36	1
215.6229	36.08	1.35	1
215.6299	35.33	1.31	1
215.6368	35.3	1.31	1
215.6438	35.74	1.32	1
215.6507	35.98	1.33	1
215.6577	36.37	1.34	1
215.6646	35.93	1.32	1
215.6716	36.27	1.35	1
215.6785	35.98	1.33	1
215.6854	36.52	1.37	1
215.6924	36.52	1.39	1
215.6993	35.46	1.41	1
215.7063	36.01	1.4	1
215.7132	35.6	1.37	1
215.7202	36.97	1.39	1
215.7271	37.94	1.39	1
215.7341	39.58	1.43	1
215.741	39.26	1.43	1
215.7479	39.18	1.46	1
215.7549	38.97	1.41	1
215.7618	39.8	1.39	1
215.7688	40.57	1.33	1
215.7757	40.96	1.33	1
215.7827	40.59	1.32	1
